# Kpath    Energy-Level (in eV)
# Band    1
       0.00000     -19.62737
       0.01711     -19.62665
       0.03422     -19.62448
       0.05133     -19.62087
       0.06844     -19.61582
       0.08555     -19.60933
       0.10266     -19.60140
       0.11978     -19.59203
       0.13689     -19.58123
       0.15400     -19.56900
       0.17111     -19.55534
       0.18822     -19.54026
       0.20533     -19.52376
       0.22244     -19.50585
       0.23955     -19.48654
       0.25666     -19.46582
       0.27377     -19.44372
       0.29088     -19.42024
       0.30799     -19.39539
       0.32511     -19.36917
       0.34222     -19.34161
       0.35933     -19.31270
       0.37644     -19.28248
       0.39355     -19.25095
       0.41066     -19.21813
       0.42777     -19.18405
       0.44488     -19.14873
       0.46199     -19.11219
       0.47910     -19.07446
       0.49621     -19.03559
       0.51332     -18.99562
       0.53043     -18.95458
       0.54755     -18.91254
       0.56466     -18.86956
       0.58177     -18.82572
       0.59888     -18.78112
       0.61599     -18.73589
       0.63310     -18.69017
       0.65021     -18.64414
       0.66732     -18.59804
       0.68443     -18.55218
       0.70154     -18.50696
       0.71865     -18.46289
       0.73576     -18.42066
       0.75287     -18.38115
       0.76999     -18.34552
       0.78710     -18.31519
       0.80421     -18.29178
       0.82132     -18.27690
       0.83843     -18.27178
       0.83843     -18.27178
       0.85267     -18.27164
       0.86691     -18.27124
       0.88115     -18.27056
       0.89539     -18.26962
       0.90963     -18.26841
       0.92387     -18.26694
       0.93811     -18.26522
       0.95236     -18.26324
       0.96660     -18.26102
       0.98084     -18.25857
       0.99508     -18.25589
       1.00932     -18.25299
       1.02356     -18.24989
       1.03780     -18.24659
       1.05204     -18.24311
       1.06628     -18.23945
       1.08052     -18.23563
       1.09476     -18.23168
       1.10901     -18.22759
       1.12325     -18.22339
       1.13749     -18.21909
       1.15173     -18.21471
       1.16597     -18.21026
       1.18021     -18.20577
       1.19445     -18.20125
       1.20869     -18.19671
       1.22293     -18.19219
       1.23717     -18.18770
       1.25141     -18.18325
       1.26565     -18.17887
       1.27990     -18.17457
       1.29414     -18.17037
       1.30838     -18.16630
       1.32262     -18.16237
       1.33686     -18.15860
       1.35110     -18.15500
       1.36534     -18.15160
       1.37958     -18.14840
       1.39382     -18.14542
       1.40806     -18.14268
       1.42230     -18.14019
       1.43655     -18.13796
       1.45079     -18.13601
       1.46503     -18.13435
       1.47927     -18.13297
       1.49351     -18.13189
       1.50775     -18.13112
       1.52199     -18.13066
       1.53623     -18.13050
       1.53623     -18.13050
       1.55849     -18.13288
       1.58075     -18.13997
       1.60302     -18.15173
       1.62528     -18.16801
       1.64754     -18.18865
       1.66980     -18.21343
       1.69206     -18.24209
       1.71432     -18.27432
       1.73659     -18.30981
       1.75885     -18.34820
       1.78111     -18.38912
       1.80337     -18.43221
       1.82563     -18.47711
       1.84789     -18.52346
       1.87016     -18.57095
       1.89242     -18.61925
       1.91468     -18.66807
       1.93694     -18.71716
       1.95920     -18.76625
       1.98146     -18.81514
       2.00373     -18.86361
       2.02599     -18.91149
       2.04825     -18.95861
       2.07051     -19.00481
       2.09277     -19.04996
       2.11503     -19.09395
       2.13730     -19.13666
       2.15956     -19.17799
       2.18182     -19.21786
       2.20408     -19.25619
       2.22634     -19.29290
       2.24860     -19.32793
       2.27087     -19.36122
       2.29313     -19.39272
       2.31539     -19.42237
       2.33765     -19.45015
       2.35991     -19.47600
       2.38217     -19.49991
       2.40444     -19.52182
       2.42670     -19.54173
       2.44896     -19.55960
       2.47122     -19.57541
       2.49348     -19.58915
       2.51574     -19.60081
       2.53801     -19.61035
       2.56027     -19.61779
       2.58253     -19.62311
       2.60479     -19.62631
       2.62705     -19.62737
       2.62705     -19.62737
       2.64129     -19.62703
       2.65553     -19.62600
       2.66978     -19.62429
       2.68402     -19.62190
       2.69826     -19.61883
       2.71250     -19.61509
       2.72674     -19.61069
       2.74098     -19.60563
       2.75522     -19.59993
       2.76946     -19.59359
       2.78370     -19.58662
       2.79794     -19.57904
       2.81218     -19.57087
       2.82643     -19.56211
       2.84067     -19.55280
       2.85491     -19.54295
       2.86915     -19.53258
       2.88339     -19.52171
       2.89763     -19.51038
       2.91187     -19.49861
       2.92611     -19.48643
       2.94035     -19.47388
       2.95459     -19.46099
       2.96883     -19.44781
       2.98307     -19.43436
       2.99732     -19.42071
       3.01156     -19.40690
       3.02580     -19.39297
       3.04004     -19.37899
       3.05428     -19.36501
       3.06852     -19.35110
       3.08276     -19.33732
       3.09700     -19.32373
       3.11124     -19.31042
       3.12548     -19.29745
       3.13972     -19.28491
       3.15397     -19.27287
       3.16821     -19.26140
       3.18245     -19.25059
       3.19669     -19.24052
       3.21093     -19.23127
       3.22517     -19.22290
       3.23941     -19.21549
       3.25365     -19.20911
       3.26789     -19.20380
       3.28213     -19.19962
       3.29637     -19.19660
       3.31061     -19.19478
       3.32486     -19.19417
       3.32486     -19.19417
       3.34197     -19.19349
       3.35908     -19.19146
       3.37619     -19.18808
       3.39330     -19.18334
       3.41041     -19.17725
       3.42752     -19.16982
       3.44463     -19.16105
       3.46174     -19.15095
       3.47885     -19.13953
       3.49596     -19.12679
       3.51307     -19.11273
       3.53019     -19.09739
       3.54730     -19.08076
       3.56441     -19.06286
       3.58152     -19.04371
       3.59863     -19.02332
       3.61574     -19.00171
       3.63285     -18.97892
       3.64996     -18.95495
       3.66707     -18.92985
       3.68418     -18.90364
       3.70129     -18.87636
       3.71840     -18.84804
       3.73551     -18.81873
       3.75263     -18.78848
       3.76974     -18.75734
       3.78685     -18.72539
       3.80396     -18.69269
       3.82107     -18.65931
       3.83818     -18.62536
       3.85529     -18.59094
       3.87240     -18.55616
       3.88951     -18.52117
       3.90662     -18.48611
       3.92373     -18.45116
       3.94084     -18.41651
       3.95795     -18.38239
       3.97507     -18.34906
       3.99218     -18.31679
       4.00929     -18.28589
       4.02640     -18.25672
       4.04351     -18.22965
       4.06062     -18.20505
       4.07773     -18.18334
       4.09484     -18.16491
       4.11195     -18.15012
       4.12906     -18.13931
       4.14617     -18.13272
       4.16328     -18.13050
# Band    2
       4.16328     -16.30148
       4.14617     -16.29796
       4.12906     -16.28746
       4.11195     -16.27013
       4.09484     -16.24624
       4.07773     -16.21610
       4.06062     -16.20347
       4.04351     -16.21624
       4.02640     -16.23063
       4.00929     -16.24650
       3.99218     -16.26372
       3.97507     -16.28214
       3.95795     -16.30161
       3.94084     -16.32201
       3.92373     -16.34319
       3.90662     -16.36500
       3.88951     -16.38732
       3.87240     -16.41002
       3.85529     -16.43297
       3.83818     -16.45608
       3.82107     -16.47923
       3.80396     -16.50233
       3.78685     -16.52527
       3.76974     -16.54797
       3.75263     -16.57034
       3.73551     -16.59232
       3.71840     -16.61384
       3.70129     -16.63482
       3.68418     -16.65522
       3.66707     -16.67496
       3.64996     -16.69402
       3.63285     -16.71234
       3.61574     -16.72987
       3.59863     -16.74658
       3.58152     -16.76245
       3.56441     -16.77742
       3.54730     -16.79148
       3.53019     -16.80459
       3.51307     -16.81673
       3.49596     -16.82789
       3.47885     -16.83803
       3.46174     -16.84716
       3.44463     -16.85524
       3.42752     -16.86227
       3.41041     -16.86824
       3.39330     -16.87313
       3.37619     -16.87694
       3.35908     -16.87966
       3.34197     -16.88130
       3.32486     -16.88185
       3.32486     -16.88185
       3.31061     -16.88043
       3.29637     -16.87618
       3.28213     -16.86911
       3.26789     -16.85926
       3.25365     -16.84666
       3.23941     -16.83138
       3.22517     -16.81347
       3.21093     -16.79301
       3.19669     -16.77007
       3.18245     -16.74474
       3.16821     -16.71712
       3.15397     -16.68727
       3.13972     -16.65529
       3.12548     -16.62128
       3.11124     -16.58533
       3.09700     -16.54755
       3.08276     -16.50801
       3.06852     -16.46682
       3.05428     -16.42406
       3.04004     -16.37982
       3.02580     -16.33420
       3.01156     -16.28727
       2.99732     -16.23911
       2.98307     -16.18983
       2.96883     -16.13952
       2.95459     -16.08824
       2.94035     -16.03609
       2.92611     -15.98316
       2.91187     -15.92955
       2.89763     -15.87533
       2.88339     -15.82061
       2.86915     -15.76551
       2.85491     -15.71011
       2.84067     -15.65456
       2.82643     -15.59899
       2.81218     -15.54357
       2.79794     -15.48848
       2.78370     -15.43392
       2.76946     -15.38016
       2.75522     -15.32752
       2.74098     -15.27640
       2.72674     -15.22735
       2.71250     -15.18099
       2.69826     -15.13820
       2.68402     -15.10005
       2.66978     -15.06788
       2.65553     -15.04324
       2.64129     -15.02767
       2.62705     -15.02232
       2.62705     -15.02232
       2.60479     -15.02958
       2.58253     -15.05059
       2.56027     -15.08325
       2.53801     -15.12500
       2.51574     -15.17345
       2.49348     -15.22668
       2.47122     -15.28313
       2.44896     -15.34170
       2.42670     -15.40150
       2.40444     -15.46189
       2.38217     -15.52239
       2.35991     -15.58256
       2.33765     -15.64213
       2.31539     -15.70082
       2.29313     -15.75843
       2.27087     -15.81478
       2.24860     -15.86971
       2.22634     -15.92309
       2.20408     -15.97481
       2.18182     -16.02475
       2.15956     -16.07282
       2.13730     -16.11895
       2.11503     -16.16302
       2.09277     -16.20497
       2.07051     -16.24470
       2.04825     -16.28212
       2.02599     -16.31716
       2.00373     -16.34971
       1.98146     -16.37967
       1.95920     -16.40694
       1.93694     -16.43141
       1.91468     -16.45295
       1.89242     -16.47143
       1.87016     -16.48671
       1.84789     -16.49865
       1.82563     -16.50708
       1.80337     -16.51186
       1.78111     -16.51281
       1.75885     -16.50981
       1.73659     -16.50274
       1.71432     -16.49149
       1.69206     -16.47602
       1.66980     -16.45639
       1.64754     -16.43271
       1.62528     -16.40533
       1.60302     -16.37496
       1.58075     -16.34325
       1.55849     -16.31474
       1.53623     -16.30148
       1.53623     -16.30148
       1.52199     -16.31786
       1.50775     -16.35368
       1.49351     -16.39574
       1.47927     -16.43957
       1.46503     -16.48370
       1.45079     -16.52753
       1.43655     -16.57077
       1.42230     -16.61327
       1.40806     -16.65495
       1.39382     -16.69576
       1.37958     -16.73565
       1.36534     -16.77461
       1.35110     -16.81261
       1.33686     -16.84964
       1.32262     -16.88568
       1.30838     -16.92073
       1.29414     -16.95478
       1.27990     -16.98782
       1.26565     -17.01986
       1.25141     -17.05087
       1.23717     -17.08086
       1.22293     -17.10983
       1.20869     -17.13777
       1.19445     -17.16468
       1.18021     -17.19054
       1.16597     -17.21537
       1.15173     -17.23916
       1.13749     -17.26191
       1.12325     -17.28360
       1.10901     -17.30426
       1.09476     -17.32387
       1.08052     -17.34241
       1.06628     -17.35992
       1.05204     -17.37637
       1.03780     -17.39176
       1.02356     -17.40609
       1.00932     -17.41937
       0.99508     -17.43159
       0.98084     -17.44275
       0.96660     -17.45285
       0.95236     -17.46189
       0.93811     -17.46986
       0.92387     -17.47678
       0.90963     -17.48263
       0.89539     -17.48742
       0.88115     -17.49114
       0.86691     -17.49380
       0.85267     -17.49540
       0.83843     -17.49593
       0.83843     -17.49593
       0.82132     -17.48982
       0.80421     -17.47197
       0.78710     -17.44362
       0.76999     -17.40641
       0.75287     -17.36194
       0.73576     -17.31169
       0.71865     -17.25680
       0.70154     -17.19820
       0.68443     -17.13662
       0.66732     -17.07260
       0.65021     -17.00659
       0.63310     -16.93895
       0.61599     -16.86997
       0.59888     -16.79989
       0.58177     -16.72894
       0.56466     -16.65730
       0.54755     -16.58516
       0.53043     -16.51268
       0.51332     -16.44002
       0.49621     -16.36736
       0.47910     -16.29487
       0.46199     -16.22268
       0.44488     -16.15097
       0.42777     -16.07990
       0.41066     -16.00965
       0.39355     -15.94038
       0.37644     -15.87230
       0.35933     -15.80559
       0.34222     -15.74042
       0.32511     -15.67699
       0.30799     -15.61548
       0.29088     -15.55611
       0.27377     -15.49906
       0.25666     -15.44452
       0.23955     -15.39266
       0.22244     -15.34366
       0.20533     -15.29769
       0.18822     -15.25488
       0.17111     -15.21539
       0.15400     -15.17933
       0.13689     -15.14679
       0.11978     -15.11788
       0.10266     -15.09271
       0.08555     -15.07128
       0.06844     -15.05370
       0.05133     -15.03999
       0.03422     -15.03017
       0.01711     -15.02427
       0.00000     -15.02232
# Band    3
       0.00000     -14.33230
       0.01711     -14.33168
       0.03422     -14.32983
       0.05133     -14.32673
       0.06844     -14.32241
       0.08555     -14.31685
       0.10266     -14.31009
       0.11978     -14.30210
       0.13689     -14.29289
       0.15400     -14.28249
       0.17111     -14.27088
       0.18822     -14.25808
       0.20533     -14.24408
       0.22244     -14.22893
       0.23955     -14.21264
       0.25666     -14.19522
       0.27377     -14.17666
       0.29088     -14.15699
       0.30799     -14.13624
       0.32511     -14.11446
       0.34222     -14.09162
       0.35933     -14.06778
       0.37644     -14.04297
       0.39355     -14.01723
       0.41066     -13.99061
       0.42777     -13.96313
       0.44488     -13.93487
       0.46199     -13.90587
       0.47910     -13.87620
       0.49621     -13.84596
       0.51332     -13.81519
       0.53043     -13.78405
       0.54755     -13.75261
       0.56466     -13.72098
       0.58177     -13.68933
       0.59888     -13.65778
       0.61599     -13.62656
       0.63310     -13.59586
       0.65021     -13.56593
       0.66732     -13.53698
       0.68443     -13.50931
       0.70154     -13.48322
       0.71865     -13.45905
       0.73576     -13.43713
       0.75287     -13.41781
       0.76999     -13.40143
       0.78710     -13.38832
       0.80421     -13.37874
       0.82132     -13.37290
       0.83843     -13.37098
       0.83843     -13.37098
       0.85267     -13.37552
       0.86691     -13.38908
       0.88115     -13.41120
       0.89539     -13.44125
       0.90963     -13.47835
       0.92387     -13.52167
       0.93811     -13.57033
       0.95236     -13.62354
       0.96660     -13.68054
       0.98084     -13.74064
       0.99508     -13.80333
       1.00932     -13.86811
       1.02356     -13.93451
       1.03780     -14.00221
       1.05204     -14.07094
       1.06628     -14.14041
       1.08052     -14.21041
       1.09476     -14.28078
       1.10901     -14.35132
       1.12325     -14.42195
       1.13749     -14.49250
       1.15173     -14.56289
       1.16597     -14.63301
       1.18021     -14.70282
       1.19445     -14.77224
       1.20869     -14.84117
       1.22293     -14.90962
       1.23717     -14.97753
       1.25141     -15.04485
       1.26565     -15.11152
       1.27990     -15.17752
       1.29414     -15.24283
       1.30838     -15.30739
       1.32262     -15.37120
       1.33686     -15.43424
       1.35110     -15.49646
       1.36534     -15.55784
       1.37958     -15.61831
       1.39382     -15.67792
       1.40806     -15.73660
       1.42230     -15.79429
       1.43655     -15.85093
       1.45079     -15.90644
       1.46503     -15.96065
       1.47927     -16.01329
       1.49351     -16.06375
       1.50775     -16.11054
       1.52199     -16.14919
       1.53623     -16.16651
       1.53623     -16.16651
       1.55849     -16.14985
       1.58075     -16.11114
       1.60302     -16.06249
       1.62528     -16.00856
       1.64754     -15.95114
       1.66980     -15.89115
       1.69206     -15.82914
       1.71432     -15.76554
       1.73659     -15.70066
       1.75885     -15.63476
       1.78111     -15.56805
       1.80337     -15.50072
       1.82563     -15.43292
       1.84789     -15.36480
       1.87016     -15.29648
       1.89242     -15.22805
       1.91468     -15.15965
       1.93694     -15.09137
       1.95920     -15.02330
       1.98146     -14.95557
       2.00373     -14.88833
       2.02599     -14.82168
       2.04825     -14.75583
       2.07051     -14.69102
       2.09277     -14.62747
       2.11503     -14.56547
       2.13730     -14.50539
       2.15956     -14.44759
       2.18182     -14.39259
       2.20408     -14.34087
       2.22634     -14.29301
       2.24860     -14.24965
       2.27087     -14.21147
       2.29313     -14.17911
       2.31539     -14.15321
       2.33765     -14.13435
       2.35991     -14.12289
       2.38217     -14.11905
       2.40444     -14.12275
       2.42670     -14.13361
       2.44896     -14.15097
       2.47122     -14.17381
       2.49348     -14.20085
       2.51574     -14.23040
       2.53801     -14.26036
       2.56027     -14.28833
       2.58253     -14.31145
       2.60479     -14.32685
       2.62705     -14.33230
       2.62705     -14.33230
       2.64129     -14.32744
       2.65553     -14.31332
       2.66978     -14.29111
       2.68402     -14.26232
       2.69826     -14.22851
       2.71250     -14.19097
       2.72674     -14.15088
       2.74098     -14.10898
       2.75522     -14.06598
       2.76946     -14.02237
       2.78370     -13.97851
       2.79794     -13.93471
       2.81218     -13.89122
       2.82643     -13.84823
       2.84067     -13.80588
       2.85491     -13.76432
       2.86915     -13.72360
       2.88339     -13.68386
       2.89763     -13.64519
       2.91187     -13.60756
       2.92611     -13.57110
       2.94035     -13.53575
       2.95459     -13.50161
       2.96883     -13.46870
       2.98307     -13.43698
       2.99732     -13.40656
       3.01156     -13.37739
       3.02580     -13.34950
       3.04004     -13.32287
       3.05428     -13.29755
       3.06852     -13.27349
       3.08276     -13.25071
       3.09700     -13.22924
       3.11124     -13.20906
       3.12548     -13.19019
       3.13972     -13.17262
