# Kpath    Energy-Level (in eV)
# Band    1
       0.00000     -29.74814
       0.01711     -29.74810
       0.03422     -29.74789
       0.05133     -29.74755
       0.06844     -29.74709
       0.08555     -29.74649
       0.10266     -29.74576
       0.11978     -29.74491
       0.13689     -29.74393
       0.15400     -29.74284
       0.17111     -29.74165
       0.18822     -29.74034
       0.20533     -29.73892
       0.22244     -29.73742
       0.23955     -29.73581
       0.25666     -29.73405
       0.27377     -29.73227
       0.29088     -29.73041
       0.30799     -29.72853
       0.32511     -29.72658
       0.34222     -29.72456
       0.35933     -29.72250
       0.37644     -29.72040
       0.39355     -29.71829
       0.41066     -29.71616
       0.42777     -29.71403
       0.44488     -29.71190
       0.46199     -29.70978
       0.47910     -29.70767
       0.49621     -29.70560
       0.51332     -29.70357
       0.53043     -29.70158
       0.54755     -29.69964
       0.56466     -29.69777
       0.58177     -29.69595
       0.59888     -29.69423
       0.61599     -29.69259
       0.63310     -29.69104
       0.65021     -29.68958
       0.66732     -29.68833
       0.68443     -29.68712
       0.70154     -29.68597
       0.71865     -29.68498
       0.73576     -29.68410
       0.75287     -29.68338
       0.76999     -29.68277
       0.78710     -29.68229
       0.80421     -29.68194
       0.82132     -29.68174
       0.83843     -29.68169
       0.83843     -29.68169
       0.85267     -29.68167
       0.86691     -29.68164
       0.88115     -29.68159
       0.89539     -29.68152
       0.90964     -29.68142
       0.92388     -29.68130
       0.93812     -29.68118
       0.95236     -29.68103
       0.96660     -29.68088
       0.98084     -29.68070
       0.99508     -29.68051
       1.00932     -29.68030
       1.02357     -29.68006
       1.03781     -29.67982
       1.05205     -29.67957
       1.06629     -29.67932
       1.08053     -29.67906
       1.09477     -29.67878
       1.10901     -29.67850
       1.12325     -29.67824
       1.13750     -29.67794
       1.15174     -29.67764
       1.16598     -29.67734
       1.18022     -29.67703
       1.19446     -29.67671
       1.20870     -29.67629
       1.22294     -29.67599
       1.23718     -29.67569
       1.25143     -29.67539
       1.26567     -29.67510
       1.27991     -29.67483
       1.29415     -29.67455
       1.30839     -29.67430
       1.32263     -29.67402
       1.33687     -29.67377
       1.35111     -29.67356
       1.36536     -29.67333
       1.37960     -29.67313
       1.39384     -29.67293
       1.40808     -29.67275
       1.42232     -29.67259
       1.43656     -29.67245
       1.45080     -29.67233
       1.46504     -29.67222
       1.47929     -29.67214
       1.49353     -29.67207
       1.50777     -29.67202
       1.52201     -29.67194
       1.53625     -29.67193
       1.53625     -29.67193
       1.55851     -29.67201
       1.58077     -29.67229
       1.60304     -29.67268
       1.62530     -29.67321
       1.64756     -29.67390
       1.66982     -29.67473
       1.69208     -29.67576
       1.71435     -29.67688
       1.73661     -29.67812
       1.75887     -29.67952
       1.78113     -29.68103
       1.80339     -29.68266
       1.82566     -29.68439
       1.84792     -29.68624
       1.87018     -29.68819
       1.89244     -29.69022
       1.91470     -29.69233
       1.93696     -29.69456
       1.95923     -29.69687
       1.98149     -29.69918
       2.00375     -29.70150
       2.02601     -29.70390
       2.04827     -29.70632
       2.07054     -29.70875
       2.09280     -29.71121
       2.11506     -29.71364
       2.13732     -29.71605
       2.15958     -29.71845
       2.18185     -29.72080
       2.20411     -29.72312
       2.22637     -29.72538
       2.24863     -29.72760
       2.27089     -29.72971
       2.29316     -29.73176
       2.31542     -29.73373
       2.33768     -29.73560
       2.35994     -29.73733
       2.38220     -29.73899
       2.40446     -29.74052
       2.42673     -29.74194
       2.44899     -29.74322
       2.47125     -29.74436
       2.49351     -29.74535
       2.51577     -29.74620
       2.53804     -29.74691
       2.56030     -29.74746
       2.58256     -29.74785
       2.60482     -29.74808
       2.62708     -29.74814
       2.62708     -29.74814
       2.64133     -29.74815
       2.65557     -29.74812
       2.66981     -29.74806
       2.68405     -29.74798
       2.69829     -29.74788
       2.71253     -29.74776
       2.72677     -29.74761
       2.74101     -29.74743
       2.75526     -29.74725
       2.76950     -29.74705
       2.78374     -29.74682
       2.79798     -29.74659
       2.81222     -29.74632
       2.82646     -29.74605
       2.84070     -29.74577
       2.85494     -29.74546
       2.86919     -29.74515
       2.88343     -29.74482
       2.89767     -29.74449
       2.91191     -29.74415
       2.92615     -29.74381
       2.94039     -29.74346
       2.95463     -29.74311
       2.96887     -29.74276
       2.98312     -29.74240
       2.99736     -29.74205
       3.01160     -29.74166
       3.02584     -29.74131
       3.04008     -29.74097
       3.05432     -29.74064
       3.06856     -29.74031
       3.08280     -29.73999
       3.09705     -29.73969
       3.11129     -29.73939
       3.12553     -29.73911
       3.13977     -29.73885
       3.15401     -29.73854
       3.16825     -29.73830
       3.18249     -29.73811
       3.19673     -29.73787
       3.21098     -29.73770
       3.22522     -29.73750
       3.23946     -29.73736
       3.25370     -29.73723
       3.26794     -29.73713
       3.28218     -29.73707
       3.29642     -29.73702
       3.31066     -29.73702
       3.32491     -29.73701
       3.32491     -29.73701
       3.34202     -29.73693
       3.35913     -29.73673
       3.37624     -29.73641
       3.39335     -29.73595
       3.41046     -29.73536
       3.42757     -29.73466
       3.44468     -29.73383
       3.46179     -29.73288
       3.47890     -29.73180
       3.49601     -29.73062
       3.51312     -29.72937
       3.53023     -29.72798
       3.54735     -29.72645
       3.56446     -29.72494
       3.58157     -29.72330
       3.59868     -29.72157
       3.61579     -29.71977
       3.63290     -29.71790
       3.65001     -29.71598
       3.66712     -29.71400
       3.68423     -29.71199
       3.70134     -29.70995
       3.71845     -29.70790
       3.73556     -29.70582
       3.75268     -29.70374
       3.76979     -29.70167
       3.78690     -29.69960
       3.80401     -29.69755
       3.82112     -29.69554
       3.83823     -29.69354
       3.85534     -29.69161
       3.87245     -29.68972
       3.88956     -29.68790
       3.90667     -29.68613
       3.92378     -29.68445
       3.94089     -29.68285
       3.95800     -29.68133
       3.97512     -29.67986
       3.99223     -29.67845
       4.00934     -29.67723
       4.02645     -29.67616
       4.04356     -29.67518
       4.06067     -29.67433
       4.07778     -29.67360
       4.09489     -29.67301
       4.11200     -29.67254
       4.12911     -29.67221
       4.14622     -29.67201
       4.16333     -29.67193
# Band    2
       4.16333     -19.00841
       4.14622     -19.00887
       4.12911     -19.00996
       4.11200     -19.01162
       4.09489     -19.01411
       4.07778     -19.01725
       4.06067     -19.02107
       4.04356     -19.02551
       4.02645     -19.03029
       4.00934     -19.03562
       3.99223     -19.04176
       3.97512     -19.04861
       3.95800     -19.05574
       3.94089     -19.06312
       3.92378     -19.07082
       3.90667     -19.07882
       3.88956     -19.08705
       3.87245     -19.09548
       3.85534     -19.10407
       3.83823     -19.11274
       3.82112     -19.12148
       3.80401     -19.13011
       3.78690     -19.13897
       3.76979     -19.14772
       3.75268     -19.15623
       3.73556     -19.16480
       3.71845     -19.17324
       3.70134     -19.18152
       3.68423     -19.18959
       3.66712     -19.19751
       3.65001     -19.20516
       3.63290     -19.21249
       3.61579     -19.21952
       3.59868     -19.22625
       3.58157     -19.23266
       3.56446     -19.23860
       3.54735     -19.24408
       3.53023     -19.24962
       3.51312     -19.25463
       3.49601     -19.25914
       3.47890     -19.26327
       3.46179     -19.26689
       3.44468     -19.27017
       3.42757     -19.27316
       3.41046     -19.27559
       3.39335     -19.27759
       3.37624     -19.27908
       3.35913     -19.28019
       3.34202     -19.28086
       3.32491     -19.28127
       3.32491     -19.28127
       3.31066     -19.28210
       3.29642     -19.28446
       3.28218     -19.28833
       3.26794     -19.29401
       3.25370     -19.30100
       3.23946     -19.30940
       3.22522     -19.31906
       3.21098     -19.33006
       3.19673     -19.34159
       3.18249     -19.35410
       3.16825     -19.36721
       3.15401     -19.38095
       3.13977     -19.39556
       3.12553     -19.40998
       3.11129     -19.42477
       3.09705     -19.43971
       3.08280     -19.45489
       3.06856     -19.46991
       3.05432     -19.48485
       3.04008     -19.49967
       3.02584     -19.51430
       3.01160     -19.52865
       2.99736     -19.54286
       2.98312     -19.55665
       2.96887     -19.57009
       2.95463     -19.58315
       2.94039     -19.59580
       2.92615     -19.60801
       2.91191     -19.61976
       2.89767     -19.63103
       2.88343     -19.64181
       2.86919     -19.65207
       2.85494     -19.66180
       2.84070     -19.67102
       2.82646     -19.67966
       2.81222     -19.68775
       2.79798     -19.69527
       2.78374     -19.70221
       2.76950     -19.70857
       2.75526     -19.71434
       2.74101     -19.71951
       2.72677     -19.72408
       2.71253     -19.72813
       2.69829     -19.73150
       2.68405     -19.73424
       2.66981     -19.73638
       2.65557     -19.73796
       2.64133     -19.73888
       2.62708     -19.73916
       2.62708     -19.73916
       2.60482     -19.73849
       2.58256     -19.73642
       2.56030     -19.73298
       2.53804     -19.72816
       2.51577     -19.72196
       2.49351     -19.71436
       2.47125     -19.70549
       2.44899     -19.69533
       2.42673     -19.68384
       2.40446     -19.67106
       2.38220     -19.65705
       2.35994     -19.64183
       2.33768     -19.62550
       2.31542     -19.60798
       2.29316     -19.58937
       2.27089     -19.56971
       2.24863     -19.54910
       2.22637     -19.52743
       2.20411     -19.50507
       2.18185     -19.48195
       2.15958     -19.45822
       2.13732     -19.43393
       2.11506     -19.40903
       2.09280     -19.38392
       2.07054     -19.35850
       2.04827     -19.33317
       2.02601     -19.30792
       2.00375     -19.28284
       1.98149     -19.25834
       1.95923     -19.23436
       1.93696     -19.21074
       1.91470     -19.18799
       1.89244     -19.16678
       1.87018     -19.14659
       1.84792     -19.12750
       1.82566     -19.10989
       1.80339     -19.09383
       1.78113     -19.07916
       1.75887     -19.06599
       1.73661     -19.05425
       1.71435     -19.04423
       1.69208     -19.03557
       1.66982     -19.02791
       1.64756     -19.02180
       1.62530     -19.01693
       1.60304     -19.01321
       1.58077     -19.01057
       1.55851     -19.00898
       1.53625     -19.00841
       1.53625     -19.00841
       1.52201     -19.00856
       1.50777     -19.00918
       1.49353     -19.00994
       1.47929     -19.01101
       1.46504     -19.01225
       1.45080     -19.01406
       1.43656     -19.01599
       1.42232     -19.01819
       1.40808     -19.02065
       1.39384     -19.02336
       1.37960     -19.02632
       1.36536     -19.02948
       1.35111     -19.03291
       1.33687     -19.03626
       1.32263     -19.04001
       1.30839     -19.04422
       1.29415     -19.04826
       1.27991     -19.05243
       1.26567     -19.05669
       1.25143     -19.06105
       1.23718     -19.06568
       1.22294     -19.07015
       1.20870     -19.07464
       1.19446     -19.07943
       1.18022     -19.08393
       1.16598     -19.08840
       1.15174     -19.09282
       1.13750     -19.09702
       1.12325     -19.10130
       1.10901     -19.10511
       1.09477     -19.10918
       1.08053     -19.11312
       1.06629     -19.11703
       1.05205     -19.12066
       1.03781     -19.12430
       1.02357     -19.12759
       1.00932     -19.13078
       0.99508     -19.13367
       0.98084     -19.13634
       0.96660     -19.13878
       0.95236     -19.14099
       0.93812     -19.14295
       0.92388     -19.14467
       0.90964     -19.14634
       0.89539     -19.14761
       0.88115     -19.14871
       0.86691     -19.14927
       0.85267     -19.14968
       0.83843     -19.15003
       0.83843     -19.15003
       0.82132     -19.15088
       0.80421     -19.15430
       0.78710     -19.16002
       0.76999     -19.16775
       0.75287     -19.17742
       0.73576     -19.18869
       0.71865     -19.20174
       0.70154     -19.21619
       0.68443     -19.23186
       0.66732     -19.24851
       0.65021     -19.26584
       0.63310     -19.28389
       0.61599     -19.30260
       0.59888     -19.32159
       0.58177     -19.34091
       0.56466     -19.36061
       0.54755     -19.38007
       0.53043     -19.39954
       0.51332     -19.41874
       0.49621     -19.43768
       0.47910     -19.45637
       0.46199     -19.47471
       0.44488     -19.49266
       0.42777     -19.51017
       0.41066     -19.52722
       0.39355     -19.54373
       0.37644     -19.55967
       0.35933     -19.57510
       0.34222     -19.58988
       0.32511     -19.60407
       0.30799     -19.61741
       0.29088     -19.63027
       0.27377     -19.64248
       0.25666     -19.65404
       0.23955     -19.66491
       0.22244     -19.67505
       0.20533     -19.68445
       0.18822     -19.69313
       0.17111     -19.70108
       0.15400     -19.70824
       0.13689     -19.71469
       0.11978     -19.72042
       0.10266     -19.72538
       0.08555     -19.72959
       0.06844     -19.73303
       0.05133     -19.73571
       0.03422     -19.73763
       0.01711     -19.73881
       0.00000     -19.73916
# Band    3
       0.00000     -16.12636
       0.01711     -16.12602
       0.03422     -16.12470
       0.05133     -16.12244
       0.06844     -16.11928
       0.08555     -16.11522
       0.10266     -16.11027
       0.11978     -16.10445
       0.13689     -16.09754
       0.15400     -16.09002
       0.17111     -16.08171
       0.18822     -16.07253
       0.20533     -16.06214
       0.22244     -16.09522
       0.23955     -16.15813
       0.25666     -16.22151
       0.27377     -16.28593
       0.29088     -16.35068
       0.30799     -16.41632
       0.32511     -16.48121
       0.34222     -16.54586
       0.35933     -16.61020
       0.37644     -16.67375
       0.39355     -16.73719
       0.41066     -16.79987
       0.42777     -16.86176
       0.44488     -16.92277
       0.46199     -16.98279
       0.47910     -17.04168
       0.49621     -17.09941
       0.51332     -17.15587
       0.53043     -17.21136
       0.54755     -17.26467
       0.56466     -17.31643
       0.58177     -17.36636
       0.59888     -17.41440
       0.61599     -17.46037
       0.63310     -17.50408
       0.65021     -17.54537
       0.66732     -17.58525
       0.68443     -17.62142
       0.70154     -17.65425
       0.71865     -17.68372
       0.73576     -17.71001
       0.75287     -17.73270
       0.76999     -17.75156
       0.78710     -17.76644
       0.80421     -17.77716
       0.82132     -17.78365
       0.83843     -17.78591
       0.83843     -17.78591
       0.85267     -17.78559
       0.86691     -17.78490
       0.88115     -17.78375
       0.89539     -17.78212
       0.90964     -17.78002
       0.92388     -17.77747
       0.93812     -17.77447
       0.95236     -17.77100
       0.96660     -17.76708
       0.98084     -17.76271
       0.99508     -17.75789
       1.00932     -17.75263
       1.02357     -17.74666
       1.03781     -17.74053
       1.05205     -17.73390
       1.06629     -17.72695
       1.08053     -17.71984
       1.09477     -17.71208
       1.10901     -17.70393
       1.12325     -17.69545
       1.13750     -17.68656
       1.15174     -17.67751
       1.16598     -17.66794
       1.18022     -17.65805
       1.19446     -17.64787
       1.20870     -17.63679
       1.22294     -17.62613
       1.23718     -17.61523
       1.25143     -17.60411
       1.26567     -17.59288
       1.27991     -17.58164
       1.29415     -17.57026
       1.30839     -17.55897
       1.32263     -17.54760
       1.33687     -17.53639
       1.35111     -17.52539
       1.36536     -17.51457
       1.37960     -17.50415
       1.39384     -17.49397
       1.40808     -17.48451
       1.42232     -17.47567
       1.43656     -17.46755
       1.45080     -17.46025
       1.46504     -17.45387
       1.47929     -17.44873
       1.49353     -17.44446
       1.50777     -17.44135
       1.52201     -17.43922
       1.53625     -17.43859
       1.53625     -17.43859
       1.55851     -17.44012
       1.58077     -17.44444
       1.60304     -17.45121
       1.62530     -17.45993
       1.64756     -17.47012
       1.66982     -17.48103
       1.69208     -17.49244
       1.71435     -17.50296
       1.73661     -17.51218
       1.75887     -17.51994
       1.78113     -17.52557
       1.80339     -17.52872
       1.82566     -17.52907
       1.84792     -17.52641
       1.87018     -17.52055
       1.89244     -17.51140
       1.91470     -17.49882
       1.93696     -17.48305
       1.95923     -17.46392
       1.98149     -17.44123
       2.00375     -17.41526
       2.02601     -17.38634
       2.04827     -17.35434
       2.07054     -17.31924
       2.09280     -17.28148
       2.11506     -17.24104
       2.13732     -17.19802
       2.15958     -17.15274
       2.18185     -17.10474
       2.20411     -17.05498
       2.22637     -17.00326
       2.24863     -16.94976
       2.27089     -16.89465
       2.29316     -16.83807
       2.31542     -16.78034
       2.33768     -16.72153
       2.35994     -16.66215
       2.38220     -16.60227
       2.40446     -16.54264
       2.42673     -16.48319
       2.44899     -16.42481
       2.47125     -16.36811
       2.49351     -16.31427
       2.51577     -16.26406
       2.53804     -16.21897
       2.56030     -16.18106
       2.58256     -16.15161
       2.60482     -16.13292
       2.62708     -16.12636
       2.62708     -16.12636
       2.64133     -16.13327
       2.65557     -16.15284
       2.66981     -16.18298
       2.68405     -16.22119
       2.69829     -16.26526
       2.71253     -16.31268
       2.72677     -16.36353
       2.74101     -16.41644
       2.75526     -16.47073
       2.76950     -16.52594
       2.78374     -16.58171
       2.79798     -16.63781
       2.81222     -16.69397
       2.82646     -16.75015
       2.84070     -16.80616
       2.85494     -16.86189
       2.86919     -16.91725
       2.88343     -16.97207
       2.89767     -17.02646
       2.91191     -17.08024
       2.92615     -17.13337
       2.94039     -17.18578
       2.95463     -17.23740
       2.96887     -17.28818
       2.98312     -17.33807
       2.99736     -17.38699
       3.01160     -17.43478
       3.02584     -17.48163
       3.04008     -17.52739
       3.05432     -17.57186
       3.06856     -17.61503
       3.08280     -17.65684
       3.09705     -17.69720
       3.11129     -17.73602
       3.12553     -17.77319
       3.13977     -17.80888
